Date, Open, Close, High, Low, Volume
2021-07-26,137.530000,133.250000,137.530000,133.150000,186869
2021-07-26,134.080000,135.250000,135.800000,133.606400,165759
2021-07-26,134.430000,132.970000,135.360000,131.820000,377788
2021-07-26,134.130000,134.090000,134.390000,131.805000,184722
2021-07-26,135.050000,136.940000,138.120000,134.740000,192951
2021-07-26,136.160000,136.560000,137.300000,135.385000,134745
2021-07-26,136.120000,138.000000,138.400000,135.000000,251134
2021-07-26,139.460000,140.660000,140.730000,138.715000,177537
2021-07-26,141.250000,141.980000,142.000000,140.530000,171239
2021-07-26,141.960000,142.170000,142.890000,141.220000,182995
2021-07-26,143.000000,143.250000,144.105000,142.505000,151058
2021-07-26,143.500000,142.970000,144.320000,142.060000,195826
2021-07-26,142.380000,144.630000,144.760000,142.380000,105250
2021-07-26,144.610000,143.600000,144.720000,142.900000,175318
2021-07-26,143.750000,143.210000,144.175000,142.445000,208088
2021-07-26,142.620000,140.990000,143.180000,140.990000,208657
2021-07-26,138.570000,132.240000,138.570000,131.610000,492876
2021-07-26,131.250000,129.100000,131.370000,127.500000,347080
2021-07-26,127.820000,128.280000,128.720000,126.780000,490743
2021-07-26,128.260000,128.760000,129.040000,127.800000,213046
2021-07-26,128.770000,130.300000,130.910000,128.770000,378645
2021-07-26,131.060000,130.070000,131.570000,129.555000,395957
2021-07-26,130.780000,130.600000,132.000000,129.875000,282990
2021-07-26,130.440000,130.350000,130.664600,129.470000,367730
2021-07-26,130.370000,131.050000,132.180000,129.503700,220359
2021-07-26,130.890000,130.400000,131.900000,130.125000,493726
2021-07-26,131.140000,134.090000,134.140000,130.410000,204653
2021-07-26,134.830000,137.710000,138.480000,134.100000,230559
2021-07-26,138.680000,137.690000,140.670000,137.680000,251524
2021-07-26,138.210000,139.380000,140.120000,137.935000,150688
2021-07-26,139.190000,139.380000,140.415000,138.740000,169130
2021-07-26,140.000000,140.770000,141.240000,139.264800,218990
2021-07-26,141.780000,142.130000,143.030000,141.015000,356520
2021-07-26,141.710000,140.500000,142.100000,139.331600,280669
2021-07-26,139.910000,141.280000,141.740000,139.376000,180865
2021-07-26,141.340000,141.510000,142.470000,140.940000,174119
2021-07-26,142.060000,139.310000,142.330000,139.040000,621490
2021-07-26,138.970000,141.590000,141.860000,138.260000,247672
2021-07-26,140.530000,140.770000,142.560000,140.160000,330053
2021-07-26,141.160000,141.840000,144.330000,141.160000,300902
2021-07-26,141.400000,142.470000,143.230000,140.450000,265561
2021-07-26,143.000000,144.820000,144.820000,142.190000,286952
2021-07-26,144.240000,144.770000,145.900000,143.390000,272170
2021-07-26,144.330000,143.080000,144.410000,142.600000,247853
2021-07-26,143.030000,141.670000,143.470000,141.230000,408616
2021-07-26,142.770000,143.870000,143.980000,141.380000,230445
2021-07-26,144.950000,144.690000,144.950000,143.340000,196044
2021-07-26,144.040000,145.970000,145.990000,143.320000,206051
2021-07-26,145.280000,143.590000,145.500000,143.380000,187864
2021-07-26,143.800000,143.680000,143.960000,142.190000,158654
2021-07-26,144.420000,145.200000,145.300000,143.280000,151301
2021-07-26,144.680000,146.210000,146.380000,144.680000,76195
2021-07-26,146.600000,146.330000,147.010000,145.470000,134441
2021-07-26,144.500000,145.810000,146.150000,144.500000,157995
2021-07-26,146.920000,147.200000,147.895000,146.030000,162186
2021-07-26,149.140000,148.080000,149.590000,147.570000,287089
2021-07-26,148.230000,149.710000,149.780000,147.750000,162564
2021-07-26,147.000000,150.420000,150.750000,146.670000,158698
2021-07-26,150.150000,151.940000,152.360000,150.150000,191178
2021-07-26,152.020000,150.070000,152.020000,149.940000,278183
2021-07-26,150.290000,151.450000,151.740000,149.830000,188043
2021-07-26,151.750000,150.920000,152.180000,150.900000,193619
2021-07-26,150.100000,151.640000,151.670000,149.480000,214196
2021-07-26,151.430000,151.120000,153.070000,151.050000,191703
2021-07-26,151.440000,150.920000,152.150000,150.400000,226061
2021-07-26,150.000000,150.810000,151.937100,147.900000,365460
2021-07-26,152.160000,152.460000,153.200000,151.740000,212911
2021-07-26,152.890000,155.020000,156.140000,152.890000,206135
2021-07-26,155.300000,154.180000,155.300000,153.390000,186190
2021-07-26,154.130000,156.520000,156.630000,153.640000,239912
2021-07-26,155.550000,157.560000,157.930000,155.550000,187038
2021-07-26,157.740000,155.480000,158.972100,155.390000,204177
2021-07-26,154.550000,153.990000,155.658100,153.723600,299099
2021-07-26,153.610000,151.610000,154.550000,151.610000,161581
2021-07-26,151.400000,154.620000,155.290000,151.340000,305085
2021-07-26,154.970000,153.540000,155.290000,153.180000,136081
2021-07-26,153.110000,153.110000,154.090000,152.230000,136647
2021-07-26,153.410000,150.920000,154.000000,150.860000,172385
2021-07-26,150.000000,149.540000,151.040000,148.600000,161592
2021-07-26,149.270000,149.740000,150.610000,149.040000,122559
2021-07-26,149.930000,149.630000,150.580000,148.880000,134775
2021-07-26,150.470000,149.260000,150.730000,148.955000,142757
2021-07-26,149.640000,147.730000,150.115000,147.470000,199213
2021-07-26,148.500000,147.860000,149.390000,147.170000,99731
2021-07-26,148.620000,146.770000,149.150000,146.480000,172536
2021-07-26,147.290000,147.310000,147.500000,146.420000,146676
2021-07-26,147.980000,146.880000,148.810000,146.610000,172859
2021-07-26,146.850000,145.660000,147.885000,145.120000,282622
2021-07-26,145.480000,145.400000,146.120000,144.740000,224481
2021-07-26,146.040000,145.560000,146.265000,144.780000,151766
2021-07-26,145.530000,142.520000,146.090000,142.030000,184730
2021-07-26,142.530000,142.780000,142.905000,141.120000,182127
2021-07-26,142.570000,142.170000,143.205000,141.640000,174032
2021-07-26,142.390000,144.990000,145.050000,142.230000,216017
2021-07-26,145.260000,145.830000,146.251200,144.240000,152871
2021-07-26,146.000000,143.490000,146.000000,143.070000,223303
2021-07-26,143.540000,144.330000,144.910000,143.365000,214137
2021-07-26,144.450000,142.620000,145.190000,142.440000,167947
2021-07-26,142.760000,141.510000,143.600200,139.970000,157849
2021-07-26,140.750000,140.100000,141.900000,139.910000,280139
2021-07-26,140.980000,141.580000,142.200000,140.170000,229561
2021-07-26,141.890000,141.630000,142.655000,141.160000,207442
2021-07-26,141.390000,140.170000,142.160000,140.100000,227325
2021-07-26,140.930000,140.180000,140.930000,139.787500,141921
2021-07-26,140.180000,140.920000,141.490000,140.110000,633272
2021-07-26,141.080000,140.710000,141.420000,139.730000,218570
2021-07-26,140.810000,140.280000,141.970000,140.060000,151919
2021-07-26,140.320000,140.840000,141.920000,140.288000,186477
2021-07-26,141.110000,141.120000,141.700000,140.900000,224918
2021-07-26,141.480000,140.410000,141.935000,140.055000,121786
2021-07-26,140.400000,140.050000,140.870000,138.640000,273425
2021-07-26,139.820000,141.020000,141.460000,139.820000,219754
2021-07-26,139.940000,139.270000,140.600000,139.010000,154187
2021-07-26,139.850000,141.180000,141.280000,139.760000,229783
2021-07-26,140.820000,140.420000,141.010000,140.050000,174250
2021-07-26,140.210000,138.500000,141.210000,138.360000,223240
2021-07-26,138.670000,138.440000,139.150000,138.010000,179662
2021-07-26,137.750000,138.560000,139.010000,137.317900,155458
2021-07-26,139.010000,139.040000,140.350000,138.400000,177571
2021-07-26,138.040000,137.130000,138.930000,136.375000,291475
2021-07-26,137.300000,137.020000,139.650000,137.000000,293088
2021-07-26,137.300000,136.060000,138.010000,135.930000,157987
2021-07-26,136.330000,134.670000,136.740000,134.660000,203576
2021-07-26,134.980000,136.240000,136.280000,134.285000,174966
