Date, Open, Close, High, Low, Volume
2018-01-02,86.440000,86.390000,87.320000,86.040000,162070
2018-01-03,86.650000,86.570000,87.550000,86.210000,111238
2018-01-04,86.610000,85.400000,87.944100,85.210000,247992
2018-01-05,85.670000,86.290000,87.430000,85.560000,155941
2018-01-08,86.230000,87.210000,87.520000,85.950000,215331
2018-01-09,87.280000,85.780000,87.760000,85.720000,213891
2018-01-10,85.490000,85.060000,86.310000,84.560000,120739
2018-01-11,84.830000,86.250000,86.260000,84.830000,136431
2018-01-12,86.370000,86.600000,86.940000,85.880000,137302
2018-01-16,86.360000,86.265000,87.210000,86.010000,188319
2018-01-17,86.770000,86.880000,87.280000,86.260000,182422
2018-01-18,86.850000,86.620000,87.140000,85.740000,161407
2018-01-19,86.690000,88.600000,88.700000,86.690000,129588
2018-01-22,88.610000,86.840000,88.610000,86.340000,315418
2018-01-23,86.810000,87.610000,87.740000,86.280000,111653
2018-01-24,87.810000,88.220000,88.600000,86.350100,181366
2018-01-25,88.400000,88.800000,89.350000,88.129000,229617
2018-01-26,88.850000,88.510000,89.360000,87.830000,153022
2018-01-29,88.090000,87.110000,89.290000,86.910000,186154
2018-01-30,87.140000,87.700000,87.920000,87.050000,222079
2018-01-31,88.090000,87.120000,88.100000,86.760000,290410
2018-02-01,86.990000,86.540000,87.859000,85.560000,152785
2018-02-02,86.180000,85.500000,87.366000,85.200000,153410
2018-02-05,84.760000,83.430000,85.940000,83.050000,314032
2018-02-06,82.380000,83.500000,83.945000,81.270100,260377
2018-02-07,83.490000,83.880000,84.979800,83.410000,245437
2018-02-08,83.860000,81.360000,84.820000,81.360000,189141
2018-02-09,82.090000,81.880000,82.450000,79.690000,290611
2018-02-12,82.300000,82.320000,83.180000,81.330000,225162
2018-02-13,86.460000,89.410000,92.010000,86.010000,936327
2018-02-14,89.240000,90.350000,90.650000,88.400000,407661
2018-02-15,89.840000,91.200000,91.710000,89.840000,247307
2018-02-16,91.040000,91.510000,92.160000,90.490000,241776
2018-02-20,90.910000,91.080000,92.120000,90.380000,272051
2018-02-21,91.340000,89.850000,92.280000,89.800000,209308
2018-02-22,90.120000,90.300000,91.390000,89.990000,207192
2018-02-23,90.430000,90.990000,91.070000,89.620000,192596
2018-02-26,91.280000,90.770000,91.480000,90.391000,165843
2018-02-27,90.730000,89.490000,90.866900,89.440000,205357
2018-02-28,89.730000,89.110000,90.210000,89.080000,224156
2018-03-01,88.920000,88.690000,90.200000,88.000000,164464
2018-03-02,88.430000,89.370000,89.859900,88.000000,209394
2018-03-05,88.970000,90.090000,90.410000,88.970000,144012
2018-03-06,90.040000,90.460000,90.900000,88.950000,176860
2018-03-07,89.650000,90.160000,91.170000,89.380000,197855
2018-03-08,90.400000,89.940000,90.830000,89.450000,184642
2018-03-09,89.940000,90.560000,90.949000,89.560000,217342
2018-03-12,90.370000,90.470000,91.000000,90.070000,135644
2018-03-13,90.990000,90.470000,92.060000,90.270000,186469
2018-03-14,90.960000,89.760000,91.265000,89.230000,193044
2018-03-15,89.840000,89.970000,90.660000,89.500000,174689
2018-03-16,90.040000,89.840000,91.160000,89.450000,216581
2018-03-19,89.750000,89.650000,90.259000,89.140000,106336
2018-03-20,89.720000,89.470000,90.460000,89.370000,146281
2018-03-21,89.400000,89.280000,90.320000,89.080000,196625
2018-03-22,88.920000,87.660000,89.800000,87.640000,166250
2018-03-23,87.650000,86.470000,88.370000,86.400000,143392
2018-03-26,87.350000,87.910000,88.540000,86.760000,170481
2018-03-27,88.200000,87.780000,89.100000,87.310000,186786
2018-03-28,87.750000,88.060000,88.770000,87.490000,131090
2018-03-29,88.580000,89.820000,90.250000,88.070000,163722
2018-04-02,89.370000,87.630000,90.120000,87.130000,123913
2018-04-03,88.130000,89.250000,89.860000,87.390000,197878
2018-04-04,88.610000,89.400000,89.859000,86.550000,137952
2018-04-05,89.990000,90.090000,90.794100,88.970000,219800
2018-04-06,89.350000,88.190000,90.270000,87.900000,235961
2018-04-09,88.840000,89.590000,90.220000,88.290000,186589
2018-04-10,90.410000,92.400000,92.998900,89.760000,348148
2018-04-11,91.640000,91.930000,92.695000,91.420000,195948
2018-04-12,92.440000,92.700000,93.130000,92.160000,173977
2018-04-13,93.200000,92.790000,93.360000,92.460000,207056
2018-04-16,93.030000,93.980000,94.660000,92.410100,133976
2018-04-17,93.830000,96.160000,96.390000,93.440000,341464
2018-04-18,96.150000,95.280000,96.200000,94.900000,273963
2018-04-19,94.690000,94.830000,95.880000,94.460000,119055
2018-04-20,95.110000,94.110000,95.450000,94.020000,165204
2018-04-23,94.380000,94.020000,95.430000,93.800000,129268
2018-04-24,94.290000,92.860000,94.699000,92.470000,290345
2018-04-25,92.710000,93.140000,93.840000,92.060000,221513
2018-04-26,93.180000,93.260000,93.700000,92.570100,315934
2018-04-27,93.750000,93.140000,94.740000,91.880000,329908
2018-04-30,93.410000,93.180000,93.900000,92.730000,413865
2018-05-01,93.130000,93.220000,93.780000,92.410000,327761
2018-05-02,93.690000,92.550000,93.990000,92.160000,527182
2018-05-03,92.250000,91.055000,92.830000,90.690000,443668
2018-05-04,90.530000,91.940000,92.740000,90.530000,227179
2018-05-07,92.050000,92.750000,93.290000,91.980000,155775
2018-05-08,92.770000,91.760000,93.230000,91.550000,205001
2018-05-09,92.000000,93.000000,93.060000,91.370000,180628
2018-05-10,93.100000,93.790000,93.930000,93.040000,281303
2018-05-11,93.800000,94.290000,94.370000,93.200000,250280
2018-05-14,94.190000,93.380000,94.909900,92.290000,367199
2018-05-15,93.170000,92.100000,93.170000,91.590000,301783
2018-05-16,92.320000,93.530000,93.770000,91.920000,168388
2018-05-17,93.670000,93.320000,93.920000,93.050000,175580
2018-05-18,92.750000,93.570000,94.275000,92.380000,159127
2018-05-21,94.020000,94.030000,94.405000,93.710000,121467
2018-05-22,94.280000,93.960000,94.950000,93.670000,122913
2018-05-23,93.630000,94.110000,94.268800,93.231000,127417
2018-05-24,94.120000,94.040000,94.500000,93.575000,79911
2018-05-25,93.880000,94.090000,94.420000,93.800000,101356
2018-05-29,93.460000,93.290000,94.019900,93.050000,139692
2018-05-30,92.700000,93.960000,94.410000,92.700000,157746
2018-05-31,94.250000,92.320000,94.390000,92.190000,99680
2018-06-01,92.220000,92.785000,93.290000,92.220000,112335
2018-06-04,93.110000,93.870000,93.900000,92.441000,104238
2018-06-05,94.060000,93.930000,94.520000,93.540100,81120
2018-06-06,93.670000,93.930000,94.100000,92.040100,304823
2018-06-07,93.830000,93.230000,94.431400,92.440000,435471
2018-06-08,93.050000,93.710000,93.930000,92.980000,225701
2018-06-11,93.790000,93.810000,94.860000,93.427500,211272
2018-06-12,94.090000,94.150000,94.890000,93.600000,234966
2018-06-13,94.550000,94.330000,95.000000,94.050000,241667
2018-06-14,94.810000,94.850000,95.260000,94.245000,230827
2018-06-15,95.000000,94.910000,95.370000,94.390000,268904
2018-06-18,94.570000,94.830000,95.080000,94.020000,156410
2018-06-19,93.950000,94.240000,94.620000,93.610000,224176
2018-06-20,94.440000,94.650000,94.870000,93.941600,206602
2018-06-21,94.510000,93.100000,94.790000,92.950000,240018
2018-06-22,93.280000,92.630000,93.490000,92.340000,329533
2018-06-25,92.770000,92.180000,93.270000,91.420000,274459
2018-06-26,92.350000,92.700000,93.450000,92.010000,182714
2018-06-27,92.780000,92.090000,93.940000,92.070000,165677
2018-06-28,92.000000,92.690000,92.760000,91.630000,174428
2018-06-29,93.200000,93.370000,94.120000,92.920000,217543
2018-07-02,92.910000,93.590000,93.765000,92.460000,177149
2018-07-03,93.960000,94.080000,95.050000,93.610000,137903
2018-07-05,94.490000,94.530000,94.530000,93.450000,171540
2018-07-06,94.220000,94.070000,94.400000,93.720000,166495
2018-07-09,94.450000,95.090000,95.630000,94.270000,148198
2018-07-10,95.170000,96.100000,96.160000,95.170000,115653
2018-07-11,95.610000,95.660000,96.370000,94.980000,107575
2018-07-12,96.000000,95.750000,96.830000,95.590000,134465
2018-07-13,95.360000,94.890000,96.185000,94.660000,168231
2018-07-16,94.770000,93.270000,94.920000,93.170000,85894
2018-07-17,93.220000,94.620000,94.740000,93.160000,102631
2018-07-18,94.640000,94.610000,95.290000,94.180000,107057
2018-07-19,94.700000,96.330000,96.540000,94.700000,159280
2018-07-20,95.940000,95.770000,96.160000,95.330000,145128
2018-07-23,95.940000,95.140000,96.330000,94.790000,160769
2018-07-24,95.340000,94.740000,95.860000,94.530000,168645
2018-07-25,94.570000,94.730000,95.000000,94.050000,151400
2018-07-26,94.880000,96.060000,96.380000,94.560000,127545
2018-07-27,98.000000,102.910000,103.030000,97.150000,558342
2018-07-30,103.520000,102.480000,104.100000,99.940000,402047
2018-07-31,102.480000,102.430000,103.480000,100.780000,449387
2018-08-01,102.400000,102.390000,102.680000,101.412700,262077
2018-08-02,101.640000,102.980000,103.580000,101.310000,279084
2018-08-03,102.990000,104.100000,104.500000,102.850000,227037
2018-08-06,104.010000,104.200000,104.950000,103.980000,192237
2018-08-07,104.160000,103.540000,104.680000,103.390000,216577
2018-08-08,103.340000,102.950000,103.976400,102.870000,187158
2018-08-09,103.110000,103.890000,104.065000,103.000000,176515
2018-08-10,103.370000,102.410000,104.040000,102.160000,252417
2018-08-13,102.240000,101.420000,103.474000,100.940000,192313
2018-08-14,101.890000,101.980000,102.495000,101.330000,132656
2018-08-15,101.560000,101.340000,101.660000,100.060000,267013
2018-08-16,101.620000,101.720000,102.160000,101.350000,161676
2018-08-17,101.680000,102.740000,102.990000,101.400000,54143
2018-08-20,102.920000,102.840000,103.520000,102.600000,120160
2018-08-21,102.830000,103.290000,103.850000,102.830000,142645
2018-08-22,103.320000,103.180000,103.400000,102.740000,65474
2018-08-23,103.320000,102.910000,103.550000,102.760000,56561
2018-08-24,102.980000,103.845000,104.140000,102.980000,80907
2018-08-27,103.790000,104.560000,104.840000,103.790000,148466
2018-08-28,104.560000,103.910000,105.190000,103.810000,159824
2018-08-29,104.200000,104.710000,105.170000,103.770000,167771
2018-08-30,104.860000,104.690000,105.770000,103.818500,156793
2018-08-31,104.620000,104.720000,105.440000,104.380000,67397
2018-09-04,105.320000,106.390000,106.500000,104.580000,211762
2018-09-05,106.280000,108.180000,108.780000,106.280000,258449
2018-09-06,108.400000,108.930000,109.690000,108.125000,189311
2018-09-07,108.940000,107.900000,108.940000,107.790000,205774
2018-09-10,108.390000,108.550000,109.080000,107.886400,121191
2018-09-11,108.260000,108.510000,108.730000,107.540000,49740
2018-09-12,108.360000,109.420000,109.630000,108.120000,130863
2018-09-13,108.750000,110.770000,110.900000,108.670000,216364
2018-09-14,110.770000,112.000000,112.160000,109.790000,316989
2018-09-17,112.300000,111.280000,112.310000,110.910000,493158
2018-09-18,111.200000,111.570000,111.790000,109.970000,154090
2018-09-19,111.670000,111.120000,111.895000,110.530000,133576
2018-09-20,111.280000,110.490000,111.510000,110.190000,147992
2018-09-21,110.170000,110.310000,110.849900,109.671000,319531
2018-09-24,110.200000,110.410000,111.470000,109.990100,248934
2018-09-25,110.750000,108.770000,110.960000,108.620000,215147
2018-09-26,108.660000,108.580000,109.491200,108.370000,242650
2018-09-27,108.600000,108.340000,109.190000,108.160000,196789
2018-09-28,108.210000,107.710000,108.890000,107.550000,236067
2018-10-01,108.050000,107.730000,109.200000,107.370000,180014
2018-10-02,107.930000,108.160000,108.610000,107.600000,146430
2018-10-03,108.510000,108.000000,108.626000,107.530000,249908
2018-10-04,107.790000,107.040000,107.790000,106.300000,257589
2018-10-05,107.389900,107.160000,107.640000,106.960000,184192
2018-10-08,107.780000,107.630000,107.850000,106.840000,128361
2018-10-09,106.810000,105.730000,107.000000,105.680100,215955
2018-10-10,105.770000,102.400000,105.770000,102.120000,379399
2018-10-11,102.240000,101.570000,103.460000,101.460000,307728
2018-10-12,103.240000,101.600000,103.300000,100.340000,356660
2018-10-15,101.540000,102.150000,102.960000,101.050000,233674
2018-10-16,103.430000,105.600000,105.770000,103.090000,224068
2018-10-17,106.090000,105.000000,106.090000,104.420000,137258
2018-10-18,104.730000,104.260000,105.240000,103.829500,389234
2018-10-19,104.930000,104.340000,105.210000,104.280000,237092
2018-10-22,104.610000,103.950000,104.735000,103.050000,147315
2018-10-23,102.730000,103.610000,104.570000,101.715000,384029
2018-10-24,103.630000,100.070000,103.820000,99.882500,421926
2018-10-25,100.880000,101.295000,101.965000,100.505000,267998
2018-10-26,100.450000,100.370000,101.047500,99.310000,304751
2018-10-29,101.320000,100.110000,102.065000,99.140000,170122
2018-10-30,100.040000,101.350000,101.410000,99.340000,215961
2018-10-31,102.430000,101.960000,103.070000,101.850000,228863
2018-11-01,103.020000,103.090000,103.470000,102.390000,360192
2018-11-02,97.050000,103.790000,105.330000,95.060000,733618
2018-11-05,103.990000,101.890000,104.480000,101.250000,372537
2018-11-06,101.640000,104.150000,104.770000,101.490000,351895
2018-11-07,104.880000,105.200000,105.260000,103.340000,295289
2018-11-08,104.950000,105.120000,105.770000,104.600000,272352
2018-11-09,104.960000,104.290000,105.800000,103.130000,149604
2018-11-12,104.160000,101.740000,104.350000,101.580000,201439
2018-11-13,102.330000,102.390000,103.460000,101.540000,151891
2018-11-14,103.040000,102.080000,103.910000,101.710000,135305
2018-11-15,101.550000,104.790000,104.830000,101.210000,198592
2018-11-16,104.190000,106.220000,107.150000,104.190000,162793
2018-11-19,106.200000,105.180000,106.650000,104.710000,153879
2018-11-20,104.620000,104.260000,105.432500,103.370000,208589
2018-11-21,104.680000,103.510000,105.190000,103.150000,184978
2018-11-23,103.000000,103.900000,104.420000,102.980000,64432
2018-11-26,104.720000,103.670000,104.990000,102.945000,170341
2018-11-27,103.300000,102.330000,103.320000,102.090000,168255
2018-11-28,102.800000,104.020000,104.070000,101.680000,262749
2018-11-29,103.720000,103.850000,104.930000,103.690000,182292
2018-11-30,103.660000,104.070000,104.550000,103.250000,208555
2018-12-03,105.230000,104.460000,105.508000,102.450000,186744
2018-12-04,104.860000,102.960000,104.860000,102.830000,185459
2018-12-06,102.000000,101.640000,102.000000,98.350000,253524
2018-12-07,100.890000,99.760000,102.850000,99.100000,163028
2018-12-10,99.430000,99.120000,99.860000,98.220000,132372
2018-12-11,100.100000,98.780000,101.020000,98.280000,144565
2018-12-12,100.100000,100.030000,100.935000,99.750000,163523
2018-12-13,100.420000,100.320000,101.270000,99.510000,147908
2018-12-14,100.040000,100.340000,100.960000,99.130000,155900
2018-12-17,99.840000,98.600000,100.650000,98.040000,266868
2018-12-18,99.430000,97.920000,100.270000,97.270000,186654
2018-12-19,98.280000,95.560000,98.840000,95.270000,211954
2018-12-20,95.510000,95.010000,96.147300,93.670000,209185
2018-12-21,94.760000,93.520000,96.610000,93.510000,320319
2018-12-24,92.860000,89.670000,92.860000,89.670000,142486
2018-12-26,89.720000,91.750000,92.010000,89.720000,351549
2018-12-27,90.700000,92.440000,92.480000,90.010000,397209
2018-12-28,92.600000,92.660000,93.910000,92.050000,377003
2018-12-31,92.820000,93.770000,93.910000,92.660000,133675
2019-01-02,92.730000,90.260000,92.730000,89.450000,373522
2019-01-03,88.970000,89.110000,90.210000,88.260000,578517
2019-01-04,90.100000,91.050000,91.900000,89.290000,350972
2019-01-07,90.600000,92.000000,93.490000,90.584800,445545
2019-01-08,92.820000,93.550000,94.100000,91.760000,213439
2019-01-09,93.860000,93.260000,94.200000,93.210000,134015
2019-01-10,93.140000,94.620000,94.820000,93.130000,162372
2019-01-11,94.670000,94.690000,94.750000,93.430000,197974
2019-01-14,94.280000,93.870000,94.845000,93.740000,128375
2019-01-15,93.970000,94.730000,95.400000,93.900000,179312
2019-01-16,94.820000,94.700000,95.350000,94.390000,153710
2019-01-17,94.390000,95.830000,96.168800,94.380000,171338
2019-01-18,96.100000,97.630000,97.970000,95.880000,195669
2019-01-22,97.420000,96.320000,98.250000,95.120000,263363
2019-01-23,96.700000,97.360000,97.770000,96.250000,240841
2019-01-24,97.250000,97.150000,98.060000,96.710000,112705
2019-01-25,97.910000,97.400000,98.350000,97.070000,86109
2019-01-28,97.390000,97.790000,98.510000,97.275000,172269
2019-01-29,97.420000,97.910000,98.420000,97.420000,126176
2019-01-30,98.100000,97.860000,98.800000,97.620000,260144
2019-01-31,98.000000,99.180000,99.280000,97.240000,204917
2019-02-01,99.330000,99.410000,99.980000,99.046200,179446
2019-02-04,99.420000,99.780000,99.815000,98.520000,106099
2019-02-05,99.950000,101.080000,101.080000,99.415000,240661
2019-02-06,100.620000,101.500000,102.000000,100.580000,173275
2019-02-07,101.130000,101.865000,102.040000,100.840000,129592
2019-02-08,101.570000,101.230000,102.310000,100.960000,146147
2019-02-11,101.880000,101.860000,102.450000,101.240000,165338
2019-02-12,102.300000,102.340000,102.690000,101.737000,194230
2019-02-13,102.710000,102.790000,103.510000,102.260000,193529
2019-02-14,102.240000,101.825000,103.025500,101.555000,166525
2019-02-15,102.320000,101.830000,102.460000,101.345000,167413
2019-02-21,102.300000,103.045000,104.000000,100.640000,478453
2019-02-22,102.480000,102.050000,103.550000,101.240000,275915
2019-02-25,102.270000,101.560000,102.602500,101.110000,280960
2019-02-26,101.210000,101.310000,101.670000,100.930000,269130
2019-02-27,102.020000,101.410000,102.298800,100.790000,346537
2019-02-28,101.260000,101.750000,102.050000,100.970000,245807
2019-03-01,102.210000,100.810000,102.210000,100.685000,198579
2019-03-04,101.250000,101.610000,102.150000,100.630000,236540
2019-03-05,101.680000,101.480000,102.270000,101.325000,157064
2019-03-06,101.530000,100.490000,102.020000,100.430000,103256
2019-03-07,100.200000,99.840000,100.630000,99.360000,119480
2019-03-08,99.210000,100.470000,100.620000,99.210000,123319
2019-03-11,100.600000,102.030000,102.070000,100.570000,146693
2019-03-12,102.060000,102.260000,102.910000,102.050000,149149
2019-03-13,102.500000,102.280000,103.340000,102.090000,217942
2019-03-14,102.340000,102.890000,103.040000,101.810000,121158
2019-03-15,103.185000,103.060000,103.580000,102.695000,105219
2019-03-18,103.220000,103.710000,103.840000,102.850000,108328
2019-03-19,104.449700,103.590000,104.570000,103.240000,153125
2019-03-20,103.420000,104.010000,104.830000,102.860000,153630
2019-03-21,103.570000,105.530000,105.680000,103.570000,147935
2019-03-22,105.260000,103.820000,105.260000,103.750000,191396
2019-03-25,103.550000,104.480000,104.965900,103.022600,144892
2019-03-26,105.000000,105.410000,106.380000,104.700000,218338
2019-03-27,105.520000,105.505000,106.489900,105.130000,148810
2019-03-28,105.760000,106.200000,106.390000,105.420000,112339
2019-03-29,106.100000,106.520000,106.680000,105.465000,211312
2019-04-01,106.910000,107.720000,107.820000,106.460000,91817
2019-04-02,107.800000,107.200000,107.800000,106.660000,151583
2019-04-03,107.610000,107.480000,108.080000,107.160000,160934
2019-04-04,107.680000,108.080000,108.160000,107.290000,138473
2019-04-05,107.570000,108.780000,108.960000,107.570000,121751
2019-04-08,108.650000,108.980000,109.270000,107.985000,122067
2019-04-09,108.390000,108.170000,108.560000,107.520000,150882
2019-04-10,108.220000,109.040000,109.300000,107.950000,128944
2019-04-11,109.290000,109.660000,109.860000,108.975000,203545
2019-04-12,109.950000,110.300000,110.695000,109.790000,164748
2019-04-15,110.340000,109.910000,110.500000,109.485000,164868
2019-04-16,109.810000,109.590000,109.970000,108.760000,162643
2019-04-17,109.680000,107.650000,109.750000,107.590000,133552
2019-04-18,107.930000,108.260000,108.380000,107.300000,129233
2019-04-22,108.250000,108.930000,109.370000,108.250000,144462
2019-04-23,109.030000,110.080000,110.530000,109.030000,153845
2019-04-24,109.970000,109.950000,110.860000,109.950000,119842
2019-04-25,109.210000,109.450000,109.970000,108.830000,114825
2019-04-26,109.710000,111.480000,111.650000,109.700000,116741
2019-04-29,111.380000,111.320000,111.720000,110.755600,103868
2019-04-30,110.750000,111.090000,111.810000,109.930000,168659
2019-05-01,112.270000,112.810000,114.660000,111.550000,308633
2019-05-02,112.810000,113.000000,113.115000,111.620000,298674
2019-05-03,113.300000,113.850000,114.140000,112.725500,287619
2019-05-06,112.540000,115.040000,115.520000,112.540000,216201
2019-05-07,113.980000,113.870000,114.680000,113.135000,123360
2019-05-08,113.780000,113.980000,114.484800,113.310000,144639
2019-05-09,113.380000,112.980000,113.790000,112.760000,216880
2019-05-10,112.720000,113.600000,113.710000,112.182300,196057
2019-05-13,111.910000,112.740000,113.170000,111.290000,141183
2019-05-14,113.390000,113.000000,114.355000,112.894000,110797
2019-05-15,112.760000,113.240000,113.770000,112.363300,96698
2019-05-16,113.380000,114.140000,114.500000,113.255000,188812
2019-05-17,113.490000,113.740000,114.460000,113.490000,129740
2019-05-20,113.190000,113.050000,113.810000,112.830000,158604
2019-05-21,113.510000,113.550000,113.890000,113.090000,143193
2019-05-22,113.770000,113.090000,113.980000,113.000000,128275
2019-05-23,112.540000,112.940000,113.690000,112.039500,98793
2019-05-24,113.290000,113.000000,113.865000,112.750000,102487
2019-05-28,113.040000,112.870000,113.615000,112.690000,209204
2019-05-29,112.540000,112.710000,113.439600,112.280000,171792
2019-05-30,112.730000,113.510000,113.625000,112.540000,113420
2019-05-31,112.530000,113.270000,113.730000,111.500000,132351
2019-06-04,114.700000,115.740000,115.980000,113.680000,425937
2019-06-05,115.900000,117.100000,117.180000,115.410000,359368
2019-06-06,117.210000,120.220000,120.390000,117.210000,273269
2019-06-07,120.000000,121.910000,122.600000,119.920000,394428
2019-06-10,122.190000,123.220000,123.280000,121.630000,227146
2019-06-11,124.000000,122.580000,124.445000,121.210000,331333
2019-06-12,122.990000,121.630000,122.990000,121.190000,235306
2019-06-13,121.500000,120.610000,122.100000,120.310000,142826
2019-06-14,120.460000,120.090000,120.510000,119.570000,137689
2019-06-17,120.040000,120.170000,120.840000,119.786500,114010
2019-06-18,120.590000,119.460000,120.700000,119.380000,178728
2019-06-19,119.630000,119.440000,120.000000,118.820000,229150
2019-06-20,120.890000,119.805000,121.000000,118.275000,248991
2019-06-21,119.320000,119.330000,119.850000,117.430100,337607
2019-06-24,119.500000,118.800000,119.500000,118.480000,145321
2019-06-25,119.000000,121.090000,121.790000,118.880000,237063
2019-06-26,121.240000,119.250000,121.250000,119.100000,159896
2019-06-27,119.390000,121.580000,121.810000,119.390000,151313
2019-06-28,121.780000,124.370000,124.750000,121.660000,291716
2019-07-01,125.000000,124.300000,126.195000,123.120000,269387
2019-07-02,124.370000,123.480000,124.710000,123.220000,289714
2019-07-03,124.000000,125.920000,125.920000,124.000000,122563
2019-07-05,124.950000,124.600000,125.257300,123.010000,188095
2019-07-08,125.500000,124.010000,125.500000,123.640000,150399
2019-07-09,123.790000,124.070000,124.531900,123.790000,201381
2019-07-10,124.630000,123.580000,125.790000,123.350000,149858
2019-07-11,123.270000,123.960000,124.120000,123.010000,189930
2019-07-12,124.190000,123.430000,124.190000,123.210000,198184
2019-07-15,123.150000,122.810000,123.960000,122.690000,162541
2019-07-16,123.120000,123.140000,123.360000,122.300000,201716
2019-07-17,123.120000,123.540000,124.430000,123.120000,228774
2019-07-18,123.150000,124.360000,124.450000,123.030000,151873
2019-07-19,124.710000,123.480000,124.945000,123.360000,183792
2019-07-22,123.510000,123.190000,123.890000,122.950000,127306
2019-07-23,123.890000,124.580000,124.710000,123.380000,148275
2019-07-24,124.010000,123.270000,124.550000,122.840000,184068
2019-07-25,123.000000,122.880000,124.280000,122.675000,245566
2019-07-26,123.130000,124.510000,124.766800,122.930000,166662
2019-07-29,124.450000,125.020000,125.660000,123.540000,213201
2019-07-30,123.800000,123.830000,124.570000,122.960000,186603
2019-07-31,123.490000,121.040000,123.860000,119.940000,310180
2019-08-01,118.680000,117.560000,119.400000,114.840000,460097
2019-08-02,116.610000,118.020000,118.340000,115.650000,248985
2019-08-05,116.440000,117.090000,119.030000,116.250000,401991
2019-08-06,117.550000,119.690000,120.810000,117.380000,325347
2019-08-07,119.100000,121.660000,122.260000,118.700000,210016
2019-08-08,122.480000,122.900000,124.000000,121.590000,263626
2019-08-09,122.465000,121.070000,123.230000,121.050000,153162
2019-08-12,121.020000,120.040000,121.678300,119.920000,117542
2019-08-13,119.780000,121.210000,121.810000,119.050000,176324
2019-08-14,120.010000,119.170000,120.730000,118.990000,336991
2019-08-15,119.280000,118.280000,120.250000,117.950000,182038
2019-08-16,118.910000,120.400000,120.740000,118.780000,155597
2019-08-19,121.200000,120.150000,121.480000,120.000000,185472
2019-08-20,120.100000,118.930000,120.100000,118.460000,99636
2019-08-21,119.660000,119.300000,119.830000,118.890000,264655
2019-08-22,119.990000,120.530000,120.720000,119.040000,195535
2019-08-23,120.550000,120.230000,121.330000,119.890000,253742
2019-08-26,120.720000,121.090000,121.230000,119.905000,198378
2019-08-27,121.480000,121.460000,121.830000,120.810000,150523
2019-08-28,121.490000,121.840000,122.140000,120.630000,153467
2019-08-29,122.880000,121.660000,123.442500,121.150000,157915
2019-08-30,122.380000,122.230000,123.320000,121.230000,149604
2019-09-03,120.810000,119.670000,121.080000,118.570000,226100
2019-09-04,120.730000,121.880000,122.050000,120.190000,135063
2019-09-05,122.990000,121.260000,123.210000,120.980000,187366
2019-09-06,120.960000,120.950000,121.840000,120.320000,127315
2019-09-09,121.570000,119.100000,121.570000,118.770000,180288
2019-09-10,118.980000,119.120000,119.315000,116.120000,224642
2019-09-11,118.900000,118.610000,119.530000,116.720000,184073
2019-09-12,119.080000,118.035000,119.700000,117.980000,138241
2019-09-13,118.550000,118.380000,118.970000,117.660000,232575
2019-09-16,117.720000,116.500000,117.720000,115.870000,153582
2019-09-17,116.200000,116.960000,117.860000,116.065000,170218
2019-09-18,116.890000,118.305000,118.950000,116.560000,214068
2019-09-19,118.330000,117.760000,118.950000,117.640000,221207
2019-09-20,118.140000,118.040000,119.020000,117.560000,250610
2019-09-23,117.610000,118.130000,118.970000,117.610000,118820
2019-09-24,118.600000,118.530000,119.490000,118.250000,140385
2019-09-25,118.710000,119.270000,119.435000,118.670000,145983
2019-09-26,119.570000,118.830000,119.680000,118.515000,97098
2019-09-27,119.210000,118.580000,119.305000,118.060000,116540
2019-09-30,118.950000,118.400000,119.409900,117.840000,162554
2019-10-01,119.290000,117.720000,119.730000,117.500000,113753
2019-10-02,117.000000,115.360000,117.019900,115.060000,154205
2019-10-03,115.000000,115.020000,115.230000,113.780000,183592
2019-10-04,115.310000,117.340000,117.620000,115.090000,120790
2019-10-07,116.690000,116.580000,117.445000,116.235000,105529
2019-10-08,116.010000,114.750000,117.760000,114.510000,195819
2019-10-09,115.820000,116.510000,116.890000,115.380000,110276
2019-10-10,116.480000,116.340000,117.240000,115.730000,82141
2019-10-11,116.920000,116.270000,118.000000,116.240000,179596
2019-10-14,116.320000,115.820000,116.880000,115.740000,108970
2019-10-15,116.340000,115.260000,116.640000,115.050000,154914
2019-10-16,115.140000,115.470000,115.600000,114.399400,183227
2019-10-17,115.570000,116.490000,117.080000,115.500000,116351
2019-10-18,116.420000,117.810000,118.000000,116.420000,107659
2019-10-21,118.370000,117.900000,119.110000,117.800000,124052
2019-10-22,118.030000,116.670000,118.050000,116.620000,69180
2019-10-23,116.530000,117.400000,117.930000,116.500000,86160
2019-10-24,117.450000,117.320000,118.125000,116.740000,94404
2019-10-25,117.210000,117.890000,118.620000,117.210000,85624
2019-10-28,117.960000,118.290000,118.795000,117.840000,109770
2019-10-29,117.450000,118.510000,119.130000,117.450000,100070
2019-10-30,118.580000,119.260000,119.630000,117.770000,100866
2019-10-31,117.950000,118.120000,118.650000,117.720000,148272
2019-11-01,114.430000,110.780000,115.560000,109.540000,497582
2019-11-04,111.010000,108.660000,111.760000,108.405000,462810
2019-11-05,109.210000,108.670000,110.250000,108.430000,309627
2019-11-06,108.670000,109.490000,109.810000,108.420000,324732
2019-11-07,109.530000,109.430000,110.530000,108.910000,153010
2019-11-08,109.310000,108.940000,110.930000,108.870000,218236
2019-11-11,108.480000,108.640000,109.755000,108.480000,158534
2019-11-12,108.640000,108.220000,109.300000,108.160000,150209
2019-11-13,108.320000,109.560000,110.070000,108.020000,332287
2019-11-14,109.480000,110.480000,110.580000,109.480000,192408
2019-11-15,110.730000,109.940000,110.730000,109.700000,190971
2019-11-18,109.920000,110.310000,110.950000,109.880000,296395
2019-11-19,110.730000,110.510000,111.400000,110.450000,230600
2019-11-20,110.120000,110.720000,111.850000,110.120000,873117
2019-11-21,111.230000,111.250000,112.050000,110.180000,205300
2019-11-22,111.650000,110.110000,111.665000,109.995000,118424
2019-11-25,110.260000,111.030000,111.060000,110.170000,222155
2019-11-26,111.520000,112.600000,112.650000,110.965700,174460
2019-11-27,112.990000,112.830000,113.580500,112.630000,122527
2019-11-29,112.640000,112.160000,113.210000,111.940000,58197
2019-12-02,112.520000,112.100000,112.719900,111.620000,219678
2019-12-03,111.510000,112.710000,113.305000,111.140000,195211
2019-12-04,112.740000,111.880000,113.480000,111.740000,204952
2019-12-05,111.890000,111.980000,112.660000,111.648400,191434
2019-12-06,112.790000,112.110000,113.000000,111.800000,255870
2019-12-09,112.310000,112.620000,112.840000,111.685000,212983
2019-12-10,112.470000,111.910000,112.830000,111.340000,174536
2019-12-11,111.970000,112.530000,112.765000,111.900000,111185
2019-12-12,112.510000,114.180000,114.440000,112.510000,315460
2019-12-13,113.980000,113.990000,115.385000,113.330000,336660
2019-12-16,114.460000,114.330000,114.710000,113.300000,141415
2019-12-17,114.130000,113.350000,114.750000,113.060000,166336
2019-12-18,113.350000,113.060000,113.350000,112.360000,123959
2019-12-19,113.160000,113.250000,113.480000,112.800000,124090
2019-12-20,113.720000,115.040000,115.140000,113.720000,292865
2019-12-23,114.930000,115.350000,115.370000,114.230000,103254
2019-12-24,115.310000,114.810000,115.640000,114.680000,44569
2019-12-26,114.740000,114.810000,114.860000,113.800000,77411
2019-12-27,115.220000,115.030000,115.350000,114.150000,59179
2019-12-30,114.940000,115.760000,115.800000,114.670000,124232
2019-12-31,115.720000,115.610000,116.200000,115.020000,153856
2020-01-02,115.500000,113.660000,116.480000,112.930000,312247
2020-01-03,112.810000,114.000000,114.840000,112.810000,172448
